"Time (s)","Linear Acceleration x (m/s^2)","Linear Acceleration y (m/s^2)","Linear Acceleration z (m/s^2)"
1.185318800E-2,0.000000000E0,0.000000000E0,0.000000000E0
1.685318800E-2,-7.780790329E-2,2.742624283E-2,1.315217018E-1
2.185318800E-2,-2.092041969E-1,4.820108414E-2,3.084087372E-1
2.685318800E-2,-3.193140030E-1,8.588743210E-2,5.020527840E-1
3.185318800E-2,-3.756818771E-1,6.333971024E-2,6.955814362E-1
3.685318800E-2,-3.252654076E-1,1.094951630E-1,8.818063736E-1
4.185318800E-2,-3.347425461E-1,1.158680916E-1,1.163869381E0
4.685318800E-2,-3.249688148E-1,6.815862656E-2,1.549506187E0
5.185318800E-2,-2.258949280E-1,-4.939126968E-2,1.987523079E0
5.685318800E-2,-2.206516266E-2,-1.216778755E-1,2.388366699E0
6.185318800E-2,1.592183113E-1,-2.750635147E-1,2.639464378E0
6.685318800E-2,3.453540802E-1,-4.063754082E-1,2.833780289E0
7.185318800E-2,5.227582455E-1,-4.927520752E-1,2.957418442E0
7.685318800E-2,6.923942566E-1,-5.386505127E-1,2.962416649E0
8.185318800E-2,7.806863785E-1,-5.904865265E-1,2.739020348E0
8.685318800E-2,7.841966152E-1,-5.677213669E-1,2.376363754E0
9.185318800E-2,7.111153603E-1,-5.383009911E-1,1.969843864E0
9.685318800E-2,5.803942680E-1,-4.506235123E-1,1.515136719E0
1.018531880E-1,4.041728973E-1,-3.235974312E-1,1.045061111E0
1.068531880E-1,1.674647331E-1,-2.048707008E-1,5.351238251E-1
1.118531880E-1,-9.261274338E-2,-1.037216187E-1,8.282852173E-2
1.168531880E-1,-3.280265331E-1,-1.513385773E-2,-3.387145996E-1
1.218531880E-1,-4.779579639E-1,7.309913635E-2,-6.518697739E-1
1.268531880E-1,-6.337573528E-1,1.342859268E-1,-8.111858368E-1
1.318531880E-1,-7.055063248E-1,1.286802292E-1,-8.424806595E-1
1.368531880E-1,-6.609086990E-1,5.960035324E-2,-7.553901672E-1
1.418531880E-1,-5.506594181E-1,-6.822872162E-2,-5.728292465E-1
1.468531880E-1,-4.650328159E-1,-2.393727303E-1,-2.850351334E-1
1.518531880E-1,-3.491554260E-1,-4.072523117E-1,3.683567047E-2
1.568531880E-1,-2.046391964E-1,-5.590734482E-1,3.287506104E-1
1.618531880E-1,-7.350564003E-2,-6.922574043E-1,5.498065948E-1
1.668531880E-1,1.320362091E-3,-8.444666862E-1,7.006216049E-1
1.718531880E-1,4.407215118E-2,-9.358382225E-1,8.248558044E-1
1.768531880E-1,1.410934925E-1,-1.039639235E0,8.601264954E-1
1.818531880E-1,2.483100891E-1,-1.126908541E0,8.321304321E-1
1.868531880E-1,3.477702141E-1,-1.208576441E0,6.607408524E-1
1.918531880E-1,4.847278595E-1,-1.293150425E0,4.363107681E-1
1.968531880E-1,5.534276962E-1,-1.278869629E0,2.126836777E-1
2.018531880E-1,6.620566845E-1,-1.270509958E0,-6.676769257E-2
2.068531880E-1,7.859261036E-1,-1.261417150E0,-3.764791489E-1
2.118531880E-1,9.314587116E-1,-1.244653225E0,-7.052345276E-1
2.168531880E-1,1.035868406E0,-1.171088457E0,-1.025802612E0
2.218531880E-1,1.078457952E0,-1.114544153E0,-1.371684074E0
2.268531880E-1,1.047284484E0,-1.071990252E0,-1.733371735E0
2.318531880E-1,1.003556252E0,-1.058299541E0,-2.099839211E0
2.368531880E-1,9.623379707E-1,-1.052639008E0,-2.419442177E0
2.418531880E-1,9.202626944E-1,-1.056228876E0,-2.704902172E0
2.468531880E-1,8.935149908E-1,-1.077357531E0,-2.908399105E0
2.518531880E-1,8.476684093E-1,-1.091371298E0,-3.062464714E0
2.568531880E-1,7.817260027E-1,-1.126576900E0,-3.189736843E0
2.618531880E-1,7.292330265E-1,-1.138118505E0,-3.266028881E0
2.668531880E-1,7.182588577E-1,-1.095848799E0,-3.251401901E0
2.718531880E-1,6.347674131E-1,-1.075394392E0,-3.134117603E0
2.768531880E-1,5.370227098E-1,-1.047059774E0,-2.945489407E0
2.818531880E-1,4.319300652E-1,-1.018234730E0,-2.654075146E0
2.868531880E-1,3.202531338E-1,-9.913218021E-1,-2.291290283E0
2.918531880E-1,2.454340458E-1,-9.645116329E-1,-1.922044277E0
2.968531880E-1,2.671308517E-1,-9.009349346E-1,-1.583632469E0
3.018531880E-1,3.069760799E-1,-8.672559261E-1,-1.236127853E0
3.068531880E-1,3.408827782E-1,-8.097982407E-1,-9.188156128E-1
3.118531880E-1,3.981981277E-1,-7.731208801E-1,-6.654281616E-1
3.168531880E-1,4.418073893E-1,-7.516877651E-1,-4.562816620E-1
3.218531880E-1,5.724861622E-1,-7.648425102E-1,-3.430328369E-1
3.268531880E-1,7.249281406E-1,-8.008234501E-1,-2.774429321E-1
3.318531880E-1,9.197641611E-1,-8.177592754E-1,-2.475681305E-1
3.368531880E-1,1.147580385E0,-8.597896099E-1,-2.868738174E-1
3.418531880E-1,1.260870814E0,-9.450011253E-1,-4.023275375E-1
3.468531880E-1,1.323722363E0,-9.209530354E-1,-5.784959793E-1
3.518531880E-1,1.403004646E0,-9.798402786E-1,-8.696269989E-1
3.568531880E-1,1.528568745E0,-9.582262039E-1,-1.046503067E0
3.618531880E-1,1.591794968E0,-8.657879829E-1,-1.224893570E0
3.668531880E-1,1.647877574E0,-7.900936604E-1,-1.480396271E0
3.718531880E-1,1.606933594E0,-7.122087479E-1,-1.783523560E0
3.768531880E-1,1.505044341E0,-6.567428112E-1,-2.151359558E0
3.818531880E-1,1.392230868E0,-5.873527527E-1,-2.522404671E0
3.868531880E-1,1.295565724E0,-5.109121799E-1,-2.812996387E0
3.918531880E-1,1.229973435E0,-4.245767593E-1,-3.036635399E0
3.968531880E-1,1.160403490E0,-3.226745129E-1,-3.197022438E0
4.018531880E-1,1.061960340E0,-2.328319550E-1,-3.298658848E0
4.068531880E-1,9.162917137E-1,-1.558170319E-1,-3.336118221E0
4.118531880E-1,7.793897390E-1,-6.321334839E-2,-3.314059258E0
4.168531880E-1,6.588726044E-1,2.506160736E-2,-3.243099689E0
4.218531880E-1,5.608820915E-1,8.673119545E-2,-3.162736893E0
4.268531880E-1,4.992245436E-1,1.067450047E-1,-3.074254036E0
4.318531880E-1,4.887771606E-1,1.101753712E-1,-2.993951321E0
4.368531880E-1,4.851887226E-1,9.926056862E-2,-2.902570248E0
4.418531880E-1,4.604393244E-1,9.023594856E-2,-2.790361881E0
4.468531880E-1,3.921051025E-1,9.712624550E-2,-2.618719578E0
4.518531880E-1,2.989330292E-1,8.627867699E-2,-2.412247181E0
4.568531880E-1,2.260589600E-1,8.218073845E-2,-2.184243679E0
4.618531880E-1,2.138094902E-1,7.826256752E-2,-1.977050304E0
4.668531880E-1,2.446452379E-1,6.069755554E-2,-1.800517559E0
4.718531880E-1,2.463676929E-1,7.392191887E-2,-1.605639458E0
4.768531880E-1,1.823579073E-1,1.091325283E-1,-1.455592632E0
4.818531880E-1,7.015454769E-2,1.614217758E-1,-1.337427616E0
4.868531880E-1,9.049057961E-3,2.340552807E-1,-1.251120567E0
4.918531880E-1,-3.960156441E-2,3.258802891E-1,-1.176262856E0
4.968531880E-1,-8.737576008E-2,3.715498447E-1,-1.070025444E0
5.018531880E-1,-9.064674377E-2,4.359712601E-1,-9.556608200E-1
5.068531880E-1,-1.102256775E-1,4.725985527E-1,-8.600625992E-1
5.118531880E-1,-1.589050293E-1,5.036425591E-1,-7.988386154E-1
5.168531880E-1,-1.798931360E-1,5.363464355E-1,-7.055568695E-1
5.218531880E-1,-2.030081749E-1,5.781433582E-1,-6.060075760E-1
5.268531880E-1,-2.077901363E-1,6.264822483E-1,-4.924840927E-1
5.318531880E-1,-1.959164143E-1,6.792495251E-1,-3.733358383E-1
5.368531880E-1,-2.230569124E-1,7.100913525E-1,-2.712821960E-1
5.418531880E-1,-2.472501993E-1,7.600548267E-1,-1.945552826E-1
5.468531880E-1,-2.456387281E-1,7.787272930E-1,-9.044933319E-2
5.518531880E-1,-2.256036997E-1,7.954339981E-1,5.004882812E-2
5.568531880E-1,-1.607656479E-1,8.161118031E-1,2.287349701E-1
5.618531880E-1,-8.126676083E-2,8.166782856E-1,4.057455063E-1
5.668531880E-1,5.003452301E-3,7.875504494E-1,5.356721878E-1
5.718531880E-1,9.811079502E-2,7.096648216E-1,5.951309204E-1
5.768531880E-1,1.847620010E-1,6.422464848E-1,5.980300903E-1
5.818531880E-1,2.225061655E-1,5.431270599E-1,5.529127121E-1
5.868531880E-1,1.995923519E-1,4.822375774E-1,4.812068939E-1
5.918531880E-1,1.327433586E-1,4.448401928E-1,4.480752945E-1
5.968531880E-1,5.430829525E-2,4.213724136E-1,4.446525574E-1
6.018531880E-1,5.369544029E-3,4.009351730E-1,3.841905594E-1
6.068531880E-1,-4.136157036E-2,4.190263748E-1,2.865810394E-1
6.118531880E-1,-6.297850609E-2,4.547472000E-1,2.030324936E-1
6.168531880E-1,-8.957803249E-2,5.231013298E-1,1.445760727E-1
6.218531880E-1,-8.828437328E-2,5.474324226E-1,4.836273193E-2
6.268531880E-1,-7.839208841E-2,5.437664986E-1,-8.319473267E-2
6.318531880E-1,-4.490584135E-2,5.007357597E-1,-2.438764572E-1
6.368531880E-1,2.288502455E-2,3.996281624E-1,-4.011402130E-1
6.418531880E-1,8.187270164E-2,3.328294754E-1,-5.025768280E-1
6.468531880E-1,9.967362881E-2,3.090915680E-1,-5.392045975E-1
6.518531880E-1,9.382176399E-2,3.262042999E-1,-5.144271851E-1
6.568531880E-1,7.228642702E-2,3.399648666E-1,-4.957780838E-1
6.618531880E-1,6.816452742E-2,3.881645203E-1,-3.999261856E-1
6.668531880E-1,1.011303663E-1,4.260053635E-1,-2.994346619E-1
6.718531880E-1,1.326609850E-1,4.575748444E-1,-2.147817612E-1
6.768531880E-1,1.347168684E-1,4.843354225E-1,-9.471988678E-2
6.818531880E-1,1.352869868E-1,5.197091103E-1,3.689765930E-3
6.868531880E-1,1.595725417E-1,5.449261665E-1,1.096582413E-1
6.918531880E-1,2.348838449E-1,5.349335670E-1,2.315053940E-1
6.968531880E-1,3.363185525E-1,5.097417831E-1,4.451675415E-1
7.018531880E-1,4.418857992E-1,4.742364883E-1,7.669630051E-1
7.068531880E-1,5.462011099E-1,4.332404137E-1,1.176837921E0
7.118531880E-1,6.106176972E-1,3.885028362E-1,1.638036728E0
7.168531880E-1,6.591357589E-1,3.498895168E-1,2.182349205E0
7.218531880E-1,7.370184064E-1,3.448886871E-1,2.777109146E0
7.268531880E-1,7.639690042E-1,3.394284248E-1,3.400187492E0
7.318531880E-1,8.160506487E-1,3.340375423E-1,3.994314194E0
7.368531880E-1,8.985081315E-1,2.880723476E-1,4.386805534E0
7.418531880E-1,9.707018733E-1,1.876442432E-1,4.558485031E0
7.468531880E-1,9.832507372E-1,6.901359558E-2,4.534839630E0
7.518531880E-1,9.583371878E-1,-5.538988113E-2,4.320904732E0
7.568531880E-1,8.868930936E-1,-1.728720665E-1,3.919366837E0
7.618531880E-1,8.117209077E-1,-2.250967026E-1,3.358068466E0
7.668531880E-1,7.441312671E-1,-2.235450745E-1,2.743182182E0
7.718531880E-1,6.751300097E-1,-1.846728325E-1,2.126007080E0
7.768531880E-1,6.454333067E-1,-1.383950710E-1,1.570629120E0
7.818531880E-1,6.485941410E-1,-1.143317223E-1,1.152595520E0
7.868531880E-1,6.699844003E-1,-8.430671692E-2,6.819381714E-1
7.918531880E-1,6.870407462E-1,-5.079555511E-2,2.710943222E-1
7.968531880E-1,6.718730927E-1,-5.035448074E-2,-1.584339142E-2
8.018531880E-1,6.383542418E-1,-4.149198532E-2,-2.583532333E-1
8.068531880E-1,6.173845530E-1,-3.749561310E-2,-4.484586716E-1
8.118531880E-1,5.778017044E-1,-4.297113419E-2,-4.831352234E-1
8.168531880E-1,5.076427460E-1,-7.905268669E-2,-5.344400406E-1
8.218531880E-1,4.274375439E-1,-1.361465454E-1,-4.827823639E-1
8.268531880E-1,3.841847181E-1,-1.790502071E-1,-4.128046036E-1
8.318531880E-1,3.545611501E-1,-2.343556881E-1,-3.813343048E-1
8.368531880E-1,3.243731260E-1,-2.329025269E-1,-2.520837784E-1
8.418531880E-1,3.352559209E-1,-2.473378181E-1,-1.041660309E-1
8.468531880E-1,3.833314180E-1,-2.614290714E-1,8.046150208E-2
8.518531880E-1,4.543023407E-1,-2.520096302E-1,2.424583435E-1
8.568531880E-1,5.031329393E-1,-2.892141342E-1,3.807315826E-1
8.618531880E-1,4.870688319E-1,-3.274972439E-1,5.282955170E-1
8.668531880E-1,4.555504322E-1,-3.834118843E-1,5.567569733E-1
8.718531880E-1,3.966029286E-1,-4.712836742E-1,4.385948181E-1
8.768531880E-1,3.321810365E-1,-5.142405033E-1,3.357505798E-1
8.818531880E-1,2.490028739E-1,-5.488405228E-1,1.108798981E-1
8.868531880E-1,1.194967031E-1,-6.044945717E-1,-2.344837189E-1
8.918531880E-1,3.827083111E-2,-6.553094387E-1,-6.082124710E-1
8.968531880E-1,-4.318594933E-3,-6.636333466E-1,-9.651947021E-1
9.018531880E-1,-1.285858154E-1,-7.496082783E-1,-1.347864151E0
9.068531880E-1,-2.960391045E-1,-8.226668835E-1,-1.757224560E0
9.118531880E-1,-2.226612568E-1,-7.394940853E-1,-2.107550144E0
9.168531880E-1,-2.182737589E-1,-6.861195564E-1,-2.321780205E0
9.218531880E-1,-2.078629732E-1,-6.522345543E-1,-2.544266224E0
9.268531880E-1,-1.864061356E-1,-6.551575661E-1,-2.740898609E0
9.318531880E-1,-1.842815876E-1,-6.392958164E-1,-2.868784904E0
9.368531880E-1,-8.586418629E-2,-5.970780849E-1,-2.990948677E0
9.418531880E-1,3.342747688E-3,-5.600750446E-1,-3.096866131E0
9.468531880E-1,3.679299355E-2,-5.656406879E-1,-3.131542683E0
9.518531880E-1,6.611657143E-2,-5.491595268E-1,-3.102393627E0
9.568531880E-1,1.264369488E-1,-5.408694744E-1,-3.081459522E0
9.618531880E-1,1.793283224E-1,-5.028727055E-1,-3.040895939E0
9.668531880E-1,2.240451574E-1,-4.560244083E-1,-2.991790295E0
9.718531880E-1,2.719801664E-1,-3.894047737E-1,-2.938262939E0
9.768531880E-1,2.540746927E-1,-3.545570374E-1,-2.890923023E0
9.818531880E-1,1.032307148E-1,-3.134217262E-1,-2.874022484E0
9.868531880E-1,2.164772749E-1,-2.522706985E-1,-2.921372414E0
9.918531880E-1,3.132761717E-1,-1.553099155E-1,-3.357492447E0
9.968531880E-1,1.812756062E-1,-7.646656036E-2,-4.259790897E0
1.001853188E0,-1.851735115E-1,3.814554214E-2,-4.921509266E0
1.006853188E0,-4.828648567E-1,5.244374275E-2,-4.665150642E0
1.011853188E0,-5.855929852E-1,-3.128409386E-2,-4.009335041E0
1.016853188E0,-3.966407776E-1,-1.493210793E-1,-3.377404213E0
1.021853188E0,-1.719331741E-2,-2.407305241E-1,-2.787552834E0
1.026853188E0,2.560274601E-1,-1.633515358E-1,-2.153954029E0
1.031853188E0,2.297146320E-1,9.316229820E-2,-1.589613438E0
1.036853188E0,7.871580124E-2,3.886628151E-1,-1.070237637E0
1.041853188E0,-1.268227100E-1,5.779356956E-1,-6.414613724E-1
1.046853188E0,-3.579885960E-1,6.589469910E-1,-3.327445984E-1
1.051853188E0,-6.266539097E-1,6.369071007E-1,-3.392353058E-1
1.056853188E0,-8.419589996E-1,6.159567833E-1,-4.361200333E-1
1.061853188E0,-9.968078136E-1,6.680114269E-1,-4.360609055E-1
1.066853188E0,-1.061139107E0,7.399330139E-1,-4.150056839E-1
1.071853188E0,-1.005880833E0,7.522242069E-1,-4.629373550E-1
1.076853188E0,-8.700494766E-1,7.071144581E-1,-4.795761108E-1
1.081853188E0,-6.995337009E-1,6.756410599E-1,-5.082273483E-1
1.086853188E0,-4.605545998E-1,6.337153912E-1,-4.782218933E-1
1.091853188E0,-1.990804672E-1,6.361234188E-1,-4.872665405E-1
1.096853188E0,2.337241173E-2,6.464893818E-1,-5.270862579E-1
1.101853188E0,1.690878868E-1,6.686356068E-1,-5.412731171E-1
1.106853188E0,2.091517448E-1,6.785185337E-1,-5.425281525E-1
1.111853188E0,2.048380375E-1,6.927278042E-1,-5.143680573E-1
1.116853188E0,1.857373714E-1,6.879932880E-1,-4.737796783E-1
1.121853188E0,1.650421619E-1,6.724257469E-1,-4.123134613E-1
1.126853188E0,1.294715405E-1,6.919095516E-1,-3.363742828E-1
1.131853188E0,7.254981995E-2,7.136251926E-1,-2.675743103E-1
1.136853188E0,-6.215047836E-2,7.623338699E-1,-1.892900467E-1
1.141853188E0,-2.855510712E-1,8.104426861E-1,-1.284694672E-1
1.146853188E0,-4.805996418E-1,8.751900196E-1,-5.161476135E-2
1.151853188E0,-6.190636158E-1,9.296448231E-1,1.340866089E-3
1.156853188E0,-6.810910702E-1,9.627714157E-1,1.162834167E-1
1.161853188E0,-6.941387653E-1,9.866714478E-1,2.867546082E-1
1.166853188E0,-6.668202877E-1,9.898412228E-1,5.342082977E-1
1.171853188E0,-5.987093449E-1,9.999165535E-1,8.362379074E-1
1.176853188E0,-5.531835556E-1,1.013590336E0,1.166703224E0
1.181853188E0,-5.179910660E-1,9.872312546E-1,1.518871307E0
1.186853188E0,-4.766714573E-1,9.443881512E-1,1.820326805E0
1.191853188E0,-4.395821095E-1,8.943579197E-1,2.054987907E0
1.196853188E0,-4.200389385E-1,8.378398418E-1,2.256396294E0
1.201853188E0,-4.240195751E-1,7.772872448E-1,2.338217735E0
1.206853188E0,-4.023802280E-1,7.171907425E-1,2.344936371E0
1.211853188E0,-3.880484104E-1,6.448235512E-1,2.256412506E0
1.216853188E0,-3.686513901E-1,6.178801060E-1,2.170652390E0
1.221853188E0,-3.277590275E-1,6.031014919E-1,2.029299736E0
1.226853188E0,-2.904322147E-1,5.572445393E-1,1.839895248E0
1.231853188E0,-2.569706440E-1,5.288779736E-1,1.636467934E0
1.236853188E0,-2.445502281E-1,4.919705391E-1,1.433595657E0
1.241853188E0,-2.339434624E-1,4.454121590E-1,1.214798927E0
1.246853188E0,-2.351863384E-1,3.887035847E-1,1.024741173E0
1.251853188E0,-2.399618626E-1,3.395335674E-1,8.419742584E-1
1.256853188E0,-2.918796539E-1,2.720849514E-1,6.037044525E-1
1.261853188E0,-3.436303139E-1,2.599263191E-1,3.548517227E-1
1.266853188E0,-4.088901281E-1,2.459511757E-1,1.104307175E-1
1.271853188E0,-4.651781321E-1,2.445213795E-1,-8.501338959E-2
1.276853188E0,-5.642073154E-1,1.958351135E-1,-1.079902649E-1
1.281853188E0,-7.115683556E-1,1.578810215E-1,4.602527618E-2
1.286853188E0,-8.611801863E-1,1.003444195E-1,3.916568756E-1
1.291853188E0,-9.942274094E-1,1.456999779E-2,8.183231354E-1
1.296853188E0,-1.049927354E0,-1.278254986E-1,1.326671600E0
1.301853188E0,-1.014514446E0,-2.447748184E-1,1.854051590E0
1.306853188E0,-9.717388153E-1,-3.445274830E-1,2.388334274E0
1.311853188E0,-8.767609596E-1,-4.257173538E-1,2.815920830E0
1.316853188E0,-7.535055876E-1,-4.829301834E-1,3.079867363E0
1.321853188E0,-6.276576519E-1,-5.356163979E-1,3.138512611E0
1.326853188E0,-4.869265556E-1,-5.025441647E-1,3.075592041E0
1.331853188E0,-4.344285727E-1,-4.828639030E-1,2.994875908E0
1.336853188E0,-4.758638144E-1,-4.857084751E-1,2.757044792E0
1.341853188E0,-5.853443146E-1,-4.849779606E-1,2.360210419E0
1.346853188E0,-6.921205521E-1,-5.289907455E-1,1.899503708E0
1.351853188E0,-7.480422258E-1,-5.752453804E-1,1.364165306E0
1.356853188E0,-7.480270863E-1,-5.724327564E-1,7.954692841E-1
1.361853188E0,-7.066588402E-1,-5.693442822E-1,2.056617737E-1
1.366853188E0,-6.525590420E-1,-5.307214260E-1,-2.621517181E-1
1.371853188E0,-6.038650274E-1,-5.372815132E-1,-7.133979797E-1
1.376853188E0,-5.801559687E-1,-5.446274281E-1,-1.026852608E0
1.381853188E0,-5.906891823E-1,-5.527029037E-1,-1.252027512E0
1.386853188E0,-5.982105732E-1,-5.635232925E-1,-1.396995068E0
1.391853188E0,-6.031159163E-1,-5.749909878E-1,-1.490560055E0
1.396853188E0,-5.673110485E-1,-5.556046963E-1,-1.513144970E0
1.401853188E0,-5.182549953E-1,-5.322012901E-1,-1.440109253E0
1.406853188E0,-4.750154018E-1,-5.338728428E-1,-1.291110992E0
1.411853188E0,-4.388376474E-1,-5.751419067E-1,-1.049753189E0
1.416853188E0,-4.431649446E-1,-6.140716076E-1,-7.832908630E-1
1.421853188E0,-4.422760010E-1,-6.541233063E-1,-4.491081238E-1
1.426853188E0,-4.555772543E-1,-6.590962410E-1,-1.388587952E-1
1.431853188E0,-4.210089445E-1,-6.553449631E-1,1.051092148E-1
1.436853188E0,-3.684331179E-1,-6.553866863E-1,2.573776245E-1
1.441853188E0,-3.061105013E-1,-6.584830284E-1,3.771314621E-1
1.446853188E0,-2.123250961E-1,-6.430437565E-1,4.486684799E-1
1.451853188E0,-1.098245382E-1,-6.297240257E-1,4.841680527E-1
1.456853188E0,-1.048529148E-2,-6.352579594E-1,4.959602356E-1
1.461853188E0,1.092568636E-1,-6.486470699E-1,4.988050461E-1
1.466853188E0,2.407351732E-1,-6.622848511E-1,4.184274673E-1
1.471853188E0,3.658326864E-1,-6.712217331E-1,3.197441101E-1
1.476853188E0,4.715631604E-1,-6.581163406E-1,1.491718292E-1
1.481853188E0,5.620118976E-1,-6.471650600E-1,-7.679176331E-2
1.486853188E0,6.051288843E-1,-6.206142902E-1,-3.679447174E-1
1.491853188E0,6.102415919E-1,-5.781164169E-1,-6.887788773E-1
1.496853188E0,5.923385024E-1,-5.321512222E-1,-1.022021294E0
1.501853188E0,5.757143497E-1,-4.731943607E-1,-1.371793747E0
1.506853188E0,5.726069808E-1,-4.176614285E-1,-1.713278770E0
1.511853188E0,5.738897920E-1,-3.339543343E-1,-2.028515816E0
1.516853188E0,5.785408616E-1,-2.643129826E-1,-2.306014061E0
1.521853188E0,5.975728631E-1,-2.209389210E-1,-2.544214725E0
1.526853188E0,5.862929225E-1,-1.574256420E-1,-2.730614185E0
1.531853188E0,5.569568872E-1,-8.259797096E-2,-2.886095524E0
1.536853188E0,5.251106024E-1,-8.024930954E-3,-2.984554768E0
1.541853188E0,4.683532715E-1,5.786061287E-2,-3.034838676E0
1.546853188E0,4.463694692E-1,8.306837082E-2,-3.068583012E0
1.551853188E0,4.160560966E-1,9.957361221E-2,-3.085163593E0
1.556853188E0,3.987534642E-1,1.224853992E-1,-3.071778774E0
1.561853188E0,3.781346679E-1,1.189987659E-1,-3.037743092E0
1.566853188E0,3.623144627E-1,1.434605122E-1,-2.962778091E0
1.571853188E0,3.320173025E-1,1.547625065E-1,-2.822029114E0
1.576853188E0,3.088767529E-1,1.396007538E-1,-2.639461994E0
1.581853188E0,2.957913876E-1,1.173279285E-1,-2.429402828E0
1.586853188E0,3.197274208E-1,7.735466957E-2,-2.273974895E0
1.591853188E0,3.700498939E-1,6.433916092E-2,-2.128048420E0
1.596853188E0,4.226020575E-1,6.940793991E-2,-1.960483074E0
1.601853188E0,4.573164284E-1,9.409213066E-2,-1.769625664E0
1.606853188E0,4.463014007E-1,1.083576679E-1,-1.595453739E0
1.611853188E0,4.232802689E-1,1.021566391E-1,-1.417604446E0
1.616853188E0,3.461881876E-1,1.667096615E-1,-1.246750832E0
1.621853188E0,2.515943050E-1,2.561850548E-1,-1.067416191E0
1.626853188E0,1.379003525E-1,3.417501450E-1,-8.791351318E-1
1.631853188E0,4.840916395E-2,3.976528645E-1,-7.002182007E-1
1.636853188E0,-1.007503271E-2,4.640173912E-1,-5.127058029E-1
1.641853188E0,-6.337797642E-2,4.864327908E-1,-3.409719467E-1
1.646853188E0,-8.699107170E-2,5.117392540E-1,-2.175064087E-1
